#AMC version: 1.97 / fvdt / 11mar2016
#AMC: output file
#AMC: requested snr= 2.000E+01
#AMC: minimum snr= 1.773E+02
#AMC: 100.0% converged
rmax=7.800000E+16
ncell=0000000050
tcmb=2.725E+00
gas:dust=1.000E+02
columns=id,ra,rb,nh,tk,nm,vr,db,td,lp
molfile=/home/frederik/Dropbox/Astro/Data/Linedata/test.txt
velo=/home/frederik/Codes/RATRAN/Ratran/velocity/vgrid_1d.f
kappa=/home/frederik/Codes/RATRAN/Ratran/kappa/kappa_0.f
@
     1    0.000000E+00    1.000000E+13    0.000000E+00    2.728000E+00    0.000000E+00    0.000000E+00    1.500000E-01    0.000000E+00    0.000000E+00    0.000000E+00
     2    1.000000E+13    1.200689E+13    2.000000E+07    2.000000E+01    2.000000E+01    0.000000E+00    1.500000E-01    0.000000E+00    3.391773E-01    6.608227E-01
     3    1.200689E+13    1.441654E+13    1.387296E+07    2.000000E+01    1.387296E+01    0.000000E+00    1.500000E-01    0.000000E+00    3.391773E-01    6.608227E-01
     4    1.441654E+13    1.730978E+13    9.622945E+06    2.000000E+01    9.622945E+00    0.000000E+00    1.500000E-01    0.000000E+00    3.391773E-01    6.608227E-01
     5    1.730978E+13    2.078366E+13    6.674934E+06    2.000000E+01    6.674934E+00    0.000000E+00    1.500000E-01    0.000000E+00    3.391773E-01    6.608227E-01
     6    2.078366E+13    2.495471E+13    4.630053E+06    2.000000E+01    4.630053E+00    0.000000E+00    1.500000E-01    0.000000E+00    3.391773E-01    6.608227E-01
     7    2.495471E+13    2.996284E+13    3.211626E+06    2.000000E+01    3.211626E+00    0.000000E+00    1.500000E-01    0.000000E+00    3.391773E-01    6.608227E-01
     8    2.996284E+13    3.597605E+13    2.227737E+06    2.000000E+01    2.227737E+00    0.000000E+00    1.500000E-01    0.000000E+00    3.391774E-01    6.608226E-01
     9    3.597605E+13    4.319605E+13    1.545265E+06    2.000000E+01    1.545265E+00    0.000000E+00    1.500000E-01    0.000000E+00    3.391777E-01    6.608223E-01
    10    4.319605E+13    5.186502E+13    1.071870E+06    2.000000E+01    1.071870E+00    0.000000E+00    1.500000E-01    0.000000E+00    3.391788E-01    6.608212E-01
    11    5.186502E+13    6.227375E+13    7.435000E+05    2.000000E+01    7.435000E-01    0.000000E+00    1.500000E-01    0.000000E+00    3.391821E-01    6.608179E-01
    12    6.227375E+13    7.477140E+13    5.157271E+05    2.000000E+01    5.157271E-01    0.000000E+00    1.500000E-01    0.000000E+00    3.391923E-01    6.608077E-01
    13    7.477140E+13    8.977719E+13    3.577330E+05    2.000000E+01    3.577330E-01    0.000000E+00    1.500000E-01    0.000000E+00    3.392200E-01    6.607800E-01
    14    8.977719E+13    1.077945E+14    2.481407E+05    2.000000E+01    2.481407E-01    0.000000E+00    1.500000E-01    0.000000E+00    3.393090E-01    6.606910E-01
    15    1.077945E+14    1.294276E+14    1.721222E+05    2.000000E+01    1.721222E-01    0.000000E+00    1.500000E-01    0.000000E+00    3.395414E-01    6.604586E-01
    16    1.294276E+14    1.554023E+14    1.193922E+05    2.000000E+01    1.193922E-01    0.000000E+00    1.500000E-01    0.000000E+00    3.401514E-01    6.598486E-01
    17    1.554023E+14    1.865899E+14    8.281613E+04    2.000000E+01    8.281613E-02    0.000000E+00    1.500000E-01    0.000000E+00    3.415169E-01    6.584831E-01
    18    1.865899E+14    2.240364E+14    5.744522E+04    2.000000E+01    5.744522E-02    0.000000E+00    1.500000E-01    0.000000E+00    3.444654E-01    6.555346E-01
    19    2.240364E+14    2.689980E+14    3.984675E+04    2.000000E+01    3.984675E-02    0.000000E+00    1.500000E-01    0.000000E+00    3.495296E-01    6.504704E-01
    20    2.689980E+14    3.229829E+14    2.763961E+04    2.000000E+01    2.763961E-02    0.000000E+00    1.500000E-01    0.000000E+00    3.574574E-01    6.425426E-01
    21    3.229829E+14    3.878020E+14    1.917215E+04    2.000000E+01    1.917215E-02    0.000000E+00    1.500000E-01    0.000000E+00    3.678564E-01    6.321436E-01
    22    3.878020E+14    4.656296E+14    1.329872E+04    2.000000E+01    1.329872E-02    0.000000E+00    1.500000E-01    0.000000E+00    3.822864E-01    6.177136E-01
    23    4.656296E+14    5.590763E+14    9.224629E+03    2.000000E+01    9.224629E-03    0.000000E+00    1.500000E-01    0.000000E+00    4.015435E-01    5.984565E-01
    24    5.590763E+14    6.712767E+14    6.398643E+03    2.000000E+01    6.398643E-03    0.000000E+00    1.500000E-01    0.000000E+00    4.244178E-01    5.755822E-01
    25    6.712767E+14    8.059944E+14    4.438405E+03    2.000000E+01    4.438405E-03    0.000000E+00    1.500000E-01    0.000000E+00    4.538572E-01    5.461428E-01
    26    8.059944E+14    9.677486E+14    3.078690E+03    2.000000E+01    3.078690E-03    0.000000E+00    1.500000E-01    0.000000E+00    4.878470E-01    5.121530E-01
    27    9.677486E+14    1.161965E+15    2.135526E+03    2.000000E+01    2.135526E-03    0.000000E+00    1.500000E-01    0.000000E+00    5.282671E-01    4.717329E-01
    28    1.161965E+15    1.395159E+15    1.481303E+03    2.000000E+01    1.481303E-03    0.000000E+00    1.500000E-01    0.000000E+00    5.711910E-01    4.288090E-01
    29    1.395159E+15    1.675151E+15    1.027502E+03    2.000000E+01    1.027502E-03    0.000000E+00    1.500000E-01    0.000000E+00    6.168135E-01    3.831865E-01
    30    1.675151E+15    2.011336E+15    7.127248E+02    2.000000E+01    7.127248E-04    0.000000E+00    1.500000E-01    0.000000E+00    6.667887E-01    3.332113E-01
    31    2.011336E+15    2.414988E+15    4.943800E+02    2.000000E+01    4.943800E-04    0.000000E+00    1.500000E-01    0.000000E+00    7.121629E-01    2.878371E-01
    32    2.414988E+15    2.899650E+15    3.429256E+02    2.000000E+01    3.429256E-04    0.000000E+00    1.500000E-01    0.000000E+00    7.536442E-01    2.463558E-01
    33    2.899650E+15    3.481578E+15    2.378696E+02    2.000000E+01    2.378696E-04    0.000000E+00    1.500000E-01    0.000000E+00    7.883986E-01    2.116014E-01
    34    3.481578E+15    4.180292E+15    1.649977E+02    2.000000E+01    1.649977E-04    0.000000E+00    1.500000E-01    0.000000E+00    8.183578E-01    1.816422E-01
    35    4.180292E+15    5.019230E+15    1.144503E+02    2.000000E+01    1.144503E-04    0.000000E+00    1.500000E-01    0.000000E+00    8.386043E-01    1.613957E-01
    36    5.019230E+15    6.026533E+15    7.938818E+01    2.000000E+01    7.938818E-05    0.000000E+00    1.500000E-01    0.000000E+00    8.544744E-01    1.455256E-01
    37    6.026533E+15    7.235992E+15    5.506744E+01    2.000000E+01    5.506744E-05    0.000000E+00    1.500000E-01    0.000000E+00    8.655565E-01    1.344435E-01
    38    7.235992E+15    8.688175E+15    3.819740E+01    2.000000E+01    3.819740E-05    0.000000E+00    1.500000E-01    0.000000E+00    8.732155E-01    1.267845E-01
    39    8.688175E+15    1.043180E+16    2.649554E+01    2.000000E+01    2.649554E-05    0.000000E+00    1.500000E-01    0.000000E+00    8.781045E-01    1.218955E-01
    40    1.043180E+16    1.252534E+16    1.837858E+01    2.000000E+01    1.837858E-05    0.000000E+00    1.500000E-01    0.000000E+00    8.815504E-01    1.184496E-01
    41    1.252534E+16    1.503904E+16    1.274826E+01    2.000000E+01    1.274826E-05    0.000000E+00    1.500000E-01    0.000000E+00    8.838245E-01    1.161755E-01
    42    1.503904E+16    1.805721E+16    8.842801E+00    2.000000E+01    8.842801E-06    0.000000E+00    1.500000E-01    0.000000E+00    8.853075E-01    1.146925E-01
    43    1.805721E+16    2.168109E+16    6.133789E+00    2.000000E+01    6.133789E-06    0.000000E+00    1.500000E-01    0.000000E+00    8.862311E-01    1.137689E-01
    44    2.168109E+16    2.603224E+16    4.254689E+00    2.000000E+01    4.254689E-06    0.000000E+00    1.500000E-01    0.000000E+00    8.868346E-01    1.131654E-01
    45    2.603224E+16    3.125663E+16    2.951256E+00    2.000000E+01    2.951256E-06    0.000000E+00    1.500000E-01    0.000000E+00    8.872124E-01    1.127876E-01
    46    3.125663E+16    3.752948E+16    2.047132E+00    2.000000E+01    2.047132E-06    0.000000E+00    1.500000E-01    0.000000E+00    8.874585E-01    1.125415E-01
    47    3.752948E+16    4.506124E+16    1.419988E+00    2.000000E+01    1.419988E-06    0.000000E+00    1.500000E-01    0.000000E+00    8.876321E-01    1.123679E-01
    48    4.506124E+16    5.410453E+16    9.849718E-01    2.000000E+01    9.849718E-07    0.000000E+00    1.500000E-01    0.000000E+00    8.877287E-01    1.122713E-01
    49    5.410453E+16    6.496271E+16    6.832235E-01    2.000000E+01    6.832235E-07    0.000000E+00    1.500000E-01    0.000000E+00    8.877967E-01    1.122033E-01
    50    6.496271E+16    7.800000E+16    4.739165E-01    2.000000E+01    4.739165E-07    0.000000E+00    1.500000E-01    0.000000E+00    8.878359E-01    1.121641E-01
